# multipoles
# s[mm] polynom_a[n=0][T/m^n] polynom_a[n=1][T/m^n] polynom_a[n=2][T/m^n] polynom_a[n=8][T/m^n] 
+0.0000000000000000e+00 +3.9270956110090752e-03 +2.0028127222947233e-06 +1.5929181320810203e+01 +2.9134119468649176e+11 
+1.0000000000000001e-01 +3.9270857522122841e-03 +5.3619281180641975e-06 +1.5929686568909119e+01 +2.9088983906638849e+11 
+2.0000000000000001e-01 +3.9270584029079420e-03 +1.4328243965493194e-05 +1.5931071594279512e+01 +2.8966253584152863e+11 
+3.0000000000000004e-01 +3.9270169037250785e-03 +2.7235214753437749e-05 +1.5933140318532182e+01 +2.8784943046497668e+11 
+4.0000000000000002e-01 +3.9269645952927446e-03 +4.2416294971718012e-05 +1.5935696663277636e+01 +2.8564066838990875e+11 
+5.0000000000000000e-01 +3.9269048182399803e-03 +5.8204939109399898e-05 +1.5938544550126384e+01 +2.8322639506946210e+11 
+6.0000000000000009e-01 +3.9268409131958289e-03 +7.2934601656165810e-05 +1.5941487900689102e+01 +2.8079675595676868e+11 
+7.0000000000000007e-01 +3.9267762207893259e-03 +8.4938737101173479e-05 +1.5944330636576513e+01 +2.7854189650489301e+11 
+8.0000000000000004e-01 +3.9267140816495183e-03 +9.2550799933928260e-05 +1.5946876679399098e+01 +2.7665196216701392e+11 
+9.0000000000000002e-01 +3.9266578364054493e-03 +9.4104244643791179e-05 +1.5948929950767379e+01 +2.7531709839629962e+11 
+1.0000000000000000e+00 +3.9266108256861493e-03 +8.7932525720156086e-05 +1.5950294372292250e+01 +2.7472745064577063e+11 
+1.1000000000000001e+00 +3.9265753956496474e-03 +7.2969610011205989e-05 +1.5950832335754120e+01 +2.7501473043988116e+11 
+1.2000000000000002e+00 +3.9265499145698223e-03 +5.0551513800503497e-05 +1.5950640113615165e+01 +2.7607691358745587e+11 
+1.3000000000000000e+00 +3.9265317562495643e-03 +2.2614765730511937e-05 +1.5949872448506458e+01 +2.7775354196900238e+11 
+1.4000000000000001e+00 +3.9265182944917404e-03 -8.9041055562267129e-06 +1.5948684083060055e+01 +2.7988415746463385e+11 
+1.5000000000000000e+00 +3.9265069030992167e-03 -4.2068571417577085e-05 +1.5947229759907776e+01 +2.8230830195457751e+11 
+1.6000000000000001e+00 +3.9264949558748680e-03 -7.4942103210800422e-05 +1.5945664221681261e+01 +2.8486551731911798e+11 
+1.7000000000000002e+00 +3.9264798266215638e-03 -1.0558817229360396e-04 +1.5944142211012291e+01 +2.8739534543849023e+11 
+1.8000000000000000e+00 +3.9264588891421755e-03 -1.3207025002360311e-04 +1.5942818470532695e+01 +2.8973732819289825e+11 
+1.9000000000000001e+00 +3.9264295172395762e-03 -1.5245180775844605e-04 +1.5941847742874138e+01 +2.9173100746262140e+11 
+2.0000000000000000e+00 +3.9263890847166380e-03 -1.6479631685546622e-04 +1.5941384770668380e+01 +2.9321592512788947e+11 
+2.1000000000000001e+00 +3.9263356195623038e-03 -1.6774682618588609e-04 +1.5941545388312599e+01 +2.9407375491581140e+11 
+2.2000000000000002e+00 +3.9262697665097971e-03 -1.6226469467442534e-04 +1.5942289797266168e+01 +2.9435469794071313e+11 
+2.3000000000000003e+00 +3.9261928244784389e-03 -1.4989085875905003e-04 +1.5943539290753142e+01 +2.9415108716402533e+11 
+2.4000000000000004e+00 +3.9261060923875364e-03 -1.3216625487821814e-04 +1.5945215161998084e+01 +2.9355525554701776e+11 
+2.5000000000000000e+00 +3.9260108691563742e-03 -1.1063181946994159e-04 +1.5947238704225969e+01 +2.9265953605080444e+11 
+2.6000000000000001e+00 +3.9259084537042804e-03 -8.6828488972271760e-05 +1.5949531210660846e+01 +2.9155626163682385e+11 
+2.7000000000000002e+00 +3.9258001449505604e-03 -6.2297199823482932e-05 +1.5952013974527123e+01 +2.9033776526639508e+11 
+2.8000000000000003e+00 +3.9256872418145065e-03 -3.8578888461751031e-05 +1.5954608289049782e+01 +2.8909637990062701e+11 
+2.9000000000000004e+00 +3.9255710432154339e-03 -1.7214491325245451e-05 +1.5957235447452957e+01 +2.8792443850095020e+11 
+3.0000000000000000e+00 +3.9254528480726514e-03 +2.5505514784477082e-07 +1.5959816742961252e+01 +2.8691427402859302e+11 
+3.1000000000000001e+00 +3.9253336607898408e-03 +1.2663340331241613e-05 +1.5962290613339361e+01 +2.8613758826343842e+11 
+3.2000000000000002e+00 +3.9252133077082290e-03 +2.0342056846068528e-05 +1.5964664074512388e+01 +2.8558355825982520e+11 
+3.3000000000000003e+00 +3.9250913206534208e-03 +2.3997423124907478e-05 +1.5966961286945546e+01 +2.8522072989072107e+11 
+3.4000000000000004e+00 +3.9249672314510290e-03 +2.4335657600727368e-05 +1.5969206411104013e+01 +2.8501764902908331e+11 
+3.5000000000000000e+00 +3.9248405719266516e-03 +2.2062978706313461e-05 +1.5971423607453131e+01 +2.8494286154785358e+11 
+3.6000000000000001e+00 +3.9247108739059022e-03 +1.7885604874529735e-05 +1.5973637036458125e+01 +2.8496491331996844e+11 
+3.7000000000000002e+00 +3.9245776692143830e-03 +1.2509754538161452e-05 +1.5975870858584177e+01 +2.8505235021842920e+11 
+3.8000000000000003e+00 +3.9244404896777024e-03 +6.6416461300397889e-06 +1.5978149234296591e+01 +2.8517371811612836e+11 
+3.9000000000000004e+00 +3.9242988671214646e-03 +9.8749808308774838e-07 +1.5980496324060553e+01 +2.8529756288606989e+11 
+4.0000000000000000e+00 +3.9241523333712839e-03 -3.7464711700340159e-06 +1.5982936288341218e+01 +2.8539243040121881e+11 
+4.1000000000000005e+00 +3.9240004881359236e-03 -7.0083975405479139e-06 +1.5985489432250491e+01 +2.8543262295688959e+11 
+4.2000000000000002e+00 +3.9238432026568303e-03 -8.8638343162907569e-06 +1.5988160639485825e+01 +2.8541546853815759e+11 
+4.2999999999999998e+00 +3.9236804160586274e-03 -9.5326891293562689e-06 +1.5990950938390684e+01 +2.8534405155267352e+11 
+4.4000000000000004e+00 +3.9235120674659032e-03 -9.2348696118709534e-06 +1.5993861357309664e+01 +2.8522145640773236e+11 
+4.5000000000000000e+00 +3.9233380960032810e-03 -8.1902833957120991e-06 +1.5996892924586280e+01 +2.8505076751095868e+11 
+4.6000000000000005e+00 +3.9231584407953693e-03 -6.6188381129209538e-06 +1.6000046668564533e+01 +2.8483506926983447e+11 
+4.7000000000000002e+00 +3.9229730409667835e-03 -4.7404413957420787e-06 +1.6003323617588240e+01 +2.8457744609190131e+11 
+4.8000000000000007e+00 +3.9227818356421243e-03 -2.7750008760199700e-06 +1.6006724800001511e+01 +2.8428098238458655e+11 
+4.9000000000000004e+00 +3.9225847639460069e-03 -9.4242418588769278e-07 +1.6010251244148165e+01 +2.8394876255543958e+11 
+5.0000000000000000e+00 +3.9223817650030400e-03 +5.3738104277746643e-07 +1.6013903978372223e+01 +2.8358387101192151e+11 
+5.1000000000000005e+00 +3.9221728080562545e-03 +1.4959111466477813e-06 +1.6017682010875042e+01 +2.8319070025457745e+11 
+5.2000000000000002e+00 +3.9219579828223636e-03 +1.9702783380759894e-06 +1.6021576269288545e+01 +2.8277887515576630e+11 
+5.3000000000000007e+00 +3.9217374091364936e-03 +2.0489987979709445e-06 +1.6025575661102192e+01 +2.8235932868088153e+11 
+5.4000000000000004e+00 +3.9215112068337705e-03 +1.8205887074972852e-06 +1.6029669093805555e+01 +2.8194299379525183e+11 
+5.5000000000000000e+00 +3.9212794957493302e-03 +1.3735642479442595e-06 +1.6033845474887929e+01 +2.8154080346430188e+11 
+5.6000000000000005e+00 +3.9210423957182937e-03 +7.9644160027319093e-07 +1.6038093711838982e+01 +2.8116369065334479e+11 
+5.7000000000000002e+00 +3.9208000265757948e-03 +1.7773694545851930e-07 +1.6042402712148032e+01 +2.8082258832780249e+11 
+5.8000000000000007e+00 +3.9205525081569626e-03 -3.9403353512524536e-07 +1.6046761383304645e+01 +2.8052842945300891e+11 
+5.9000000000000004e+00 +3.9202999602969213e-03 -8.3035366079879639e-07 +1.6051158632798341e+01 +2.8029214699430829e+11 
+6.0000000000000000e+00 +3.9200425028307999e-03 -1.0427072498924908e-06 +1.6055583368118580e+01 +2.8012467391710968e+11 
+6.1000000000000005e+00 +3.9197801040411102e-03 -9.6850960148236612e-07 +1.6060032984513537e+01 +2.8002966636408600e+11 
+6.2000000000000002e+00 +3.9195121259998677e-03 -6.4890193321330012e-07 +1.6064538828266464e+01 +2.7998167318721497e+11 
+6.3000000000000007e+00 +3.9192377792264428e-03 -1.5095694243304707e-07 +1.6069140733420099e+01 +2.7994796641551752e+11 
+6.4000000000000004e+00 +3.9189562742402368e-03 +4.5825267296628192e-07 +1.6073878534016270e+01 +2.7989581807834143e+11 
+6.5000000000000000e+00 +3.9186668215606324e-03 +1.1116542157877787e-06 +1.6078792064097406e+01 +2.7979250020482190e+11 
+6.6000000000000005e+00 +3.9183686317070116e-03 +1.7421749885918699e-06 +1.6083921157705806e+01 +2.7960528482416925e+11 
+6.7000000000000002e+00 +3.9180609151987763e-03 +2.2827422936110561e-06 +1.6089305648883400e+01 +2.7930144396564062e+11 
+6.8000000000000007e+00 +3.9177428825552980e-03 +2.6662834335828444e-06 +1.6094985371672792e+01 +2.7884824965835809e+11 
+6.9000000000000004e+00 +3.9174137442959684e-03 +2.8257257108643469e-06 +1.6101000160116193e+01 +2.7821297393150342e+11 
+7.0000000000000000e+00 +3.9170727109401875e-03 +2.6939964279044955e-06 +1.6107389848255394e+01 +2.7736288881444281e+11 
+7.1000000000000005e+00 +3.9167193050538823e-03 +2.2276797691074085e-06 +1.6114176259563834e+01 +2.7628078706470532e+11 
+7.2000000000000002e+00 +3.9163542973892525e-03 +1.4779874454059253e-06 +1.6121309175236291e+01 +2.7501154435423956e+11 
+7.3000000000000007e+00 +3.9159787707450265e-03 +5.1978804960280935e-07 +1.6128720365898850e+01 +2.7361555708330789e+11 
+7.4000000000000004e+00 +3.9155938079199568e-03 -5.7204982509910412e-07 +1.6136341602177016e+01 +2.7215322165236194e+11 
+7.5000000000000000e+00 +3.9152004917127805e-03 -1.7226575862184186e-06 +1.6144104654696786e+01 +2.7068493446165878e+11 
+7.6000000000000005e+00 +3.9147999049222344e-03 -2.8571666407293801e-06 +1.6151941294084182e+01 +2.6927109191147882e+11 
+7.7000000000000002e+00 +3.9143931303470747e-03 -3.9007083957964310e-06 +1.6159783290964494e+01 +2.6797209040234903e+11 
+7.8000000000000007e+00 +3.9139812507860278e-03 -4.7784142586168065e-06 +1.6167562415963975e+01 +2.6684832633444080e+11 
+7.9000000000000004e+00 +3.9135653490378480e-03 -5.4154156364008603e-06 +1.6175210439708078e+01 +2.6596019610823959e+11 
+8.0000000000000000e+00 +3.9131465079012681e-03 -5.7368439360834861e-06 +1.6182659132822963e+01 +2.6536809612395575e+11 
+8.0999999999999996e+00 +3.9127253557243464e-03 -5.6907386959126990e-06 +1.6189865767775881e+01 +2.6511081973428342e+11 
+8.2000000000000011e+00 +3.9123007030523651e-03 -5.3167719775657290e-06 +1.6196889624401607e+01 +2.6514074810068958e+11 
+8.3000000000000007e+00 +3.9118709059799269e-03 -4.6775239736918855e-06 +1.6203815484376268e+01 +2.6538865933703415e+11 
+8.4000000000000004e+00 +3.9114343206016304e-03 -3.8355748766453392e-06 +1.6210728129376058e+01 +2.6578533155714597e+11 
+8.5000000000000000e+00 +3.9109893030120774e-03 -2.8535048793705336e-06 +1.6217712341077153e+01 +2.6626154287487192e+11 
+8.5999999999999996e+00 +3.9105342093058619e-03 -1.7938941742413179e-06 +1.6224852901156002e+01 +2.6674807140394745e+11 
+8.7000000000000011e+00 +3.9100673955775834e-03 -7.1932295398570101e-07 +1.6232234591288883e+01 +2.6717569525815204e+11 
+8.8000000000000007e+00 +3.9095872179218437e-03 +3.0762858903558388e-07 +1.6239942193151837e+01 +2.6747519255139752e+11 
+8.9000000000000004e+00 +3.9090920324332395e-03 +1.2243802618387451e-06 +1.6248060488421160e+01 +2.6757734139748157e+11 
+9.0000000000000000e+00 +3.9085801952063728e-03 +1.9683518720433732e-06 +1.6256674258773099e+01 +2.6741291991019922e+11 
+9.0999999999999996e+00 +3.9080504918146798e-03 +2.4923645410367664e-06 +1.6265843552685254e+01 +2.6693396560896671e+11 
+9.2000000000000011e+00 +3.9075034257469530e-03 +2.8108446454672334e-06 +1.6275529485840192e+01 +2.6617755363574689e+11 
+9.3000000000000007e+00 +3.9069399299708476e-03 +2.9536198764591089e-06 +1.6285668440721164e+01 +2.6520201853832635e+11 
+9.4000000000000004e+00 +3.9063609374539931e-03 +2.9505179249202968e-06 +1.6296196799812098e+01 +2.6406569486425275e+11 
+9.5000000000000000e+00 +3.9057673811640206e-03 +2.8313664814438918e-06 +1.6307050945596977e+01 +2.6282691716105566e+11 
+9.6000000000000014e+00 +3.9051601940685784e-03 +2.6259932371148770e-06 +1.6318167260559242e+01 +2.6154401997646707e+11 
+9.7000000000000011e+00 +3.9045403091353087e-03 +2.3642258826050482e-06 +1.6329482127182434e+01 +2.6027533785816711e+11 
+9.8000000000000007e+00 +3.9039086593318359e-03 +2.0758921089993905e-06 +1.6340931927950674e+01 +2.5907920535365411e+11 
+9.9000000000000004e+00 +3.9032661776258145e-03 +1.7908196070746363e-06 +1.6352453045347229e+01 +2.5801395701069907e+11 
+1.0000000000000000e+01 +3.9026137969848797e-03 +1.5388360676009600e-06 +1.6363981861855958e+01 +2.5713792737687302e+11 
+1.0100000000000001e+01 +3.9019521022337026e-03 +1.3440084670732837e-06 +1.6375474164988752e+01 +2.5649274058876025e+11 
+1.0200000000000001e+01 +3.9012802856251078e-03 +1.2073609238951841e-06 +1.6386963362369649e+01 +2.5605317913895108e+11 
+1.0300000000000001e+01 +3.9005971912689629e-03 +1.1241568420834894e-06 +1.6398502266650866e+01 +2.5577731510895047e+11 
+1.0400000000000000e+01 +3.8999016632751296e-03 +1.0896596258124339e-06 +1.6410143690484485e+01 +2.5562322058033859e+11 
+1.0500000000000000e+01 +3.8991925457534707e-03 +1.0991326789611170e-06 +1.6421940446522715e+01 +2.5554896763464886e+11 
+1.0600000000000001e+01 +3.8984686828138480e-03 +1.1478394056644217e-06 +1.6433945347417911e+01 +2.5551262835333691e+11 
+1.0700000000000001e+01 +3.8977289185661312e-03 +1.2310432098407985e-06 +1.6446211205821935e+01 +2.5547227481806339e+11 
+1.0800000000000001e+01 +3.8969720971201737e-03 +1.3440074955267522e-06 +1.6458790834387205e+01 +2.5538597911029684e+11 
+1.0900000000000000e+01 +3.8961970625858385e-03 +1.4819956669227506e-06 +1.6471737045766009e+01 +2.5521181331151886e+11 
+1.1000000000000000e+01 +3.8954026590729937e-03 +1.6402711276586697e-06 +1.6485102652610319e+01 +2.5490784950336148e+11 
+1.1100000000000001e+01 +3.8945879362257182e-03 +1.8137189674811562e-06 +1.6498928070429024e+01 +2.5444330150972147e+11 
+1.1200000000000001e+01 +3.8937527658249580e-03 +1.9957110169967519e-06 +1.6513204126157120e+01 +2.5383195012440536e+11 
+1.1300000000000001e+01 +3.8928972251858771e-03 +2.1792407921548634e-06 +1.6527909249586404e+01 +2.5309871788353629e+11 
+1.1400000000000000e+01 +3.8920213916236279e-03 +2.3573018092000302e-06 +1.6543021870508756e+01 +2.5226852732322693e+11 
+1.1500000000000000e+01 +3.8911253424533808e-03 +2.5228875841997137e-06 +1.6558520418715847e+01 +2.5136630097964194e+11 
+1.1600000000000001e+01 +3.8902091549903005e-03 +2.6689916330246176e-06 +1.6574383323999228e+01 +2.5041696138901083e+11 
+1.1700000000000001e+01 +3.8892729065495434e-03 +2.7886074720373354e-06 +1.6590589016150709e+01 +2.4944543108748267e+11 
+1.1800000000000001e+01 +3.8883166744462768e-03 +2.8747286171675979e-06 +1.6607115924962109e+01 +2.4847663261114676e+11 
+1.1900000000000000e+01 +3.8873405359956563e-03 +2.9203485843779294e-06 +1.6623942480225132e+01 +2.4753548849620413e+11 
+1.2000000000000000e+01 +3.8863445685128461e-03 +2.9184608898800774e-06 +1.6641047111731574e+01 +2.4664692127878568e+11 
+1.2100000000000001e+01 +3.8853286838398571e-03 +2.8652894793230024e-06 +1.6658416961844281e+01 +2.4582816469815387e+11 
+1.2200000000000001e+01 +3.8842921319260358e-03 +2.7699800162488097e-06 +1.6676074023211658e+01 +2.4506569730573718e+11 
+1.2300000000000001e+01 +3.8832339972475842e-03 +2.6449085938335719e-06 +1.6694049001053315e+01 +2.4433830885605927e+11 
+1.2400000000000000e+01 +3.8821533642807026e-03 +2.5024513053648574e-06 +1.6712372600588807e+01 +2.4362478910360498e+11 
+1.2500000000000000e+01 +3.8810493175015916e-03 +2.3549842440908836e-06 +1.6731075527037611e+01 +2.4290392780295508e+11 
+1.2600000000000001e+01 +3.8799209413864430e-03 +2.2148835029057080e-06 +1.6750188485619507e+01 +2.4215451470854504e+11 
+1.2700000000000001e+01 +3.8787673204114643e-03 +2.0945251754051498e-06 +1.6769742181553802e+01 +2.4135533957498688e+11 
+1.2800000000000001e+01 +3.8775875390528432e-03 +2.0062853545816433e-06 +1.6789767320060342e+01 +2.4048519215671603e+11 
+1.2900000000000000e+01 +3.8763806817867915e-03 +1.9625401335522350e-06 +1.6810294606358447e+01 +2.3952286220830814e+11 
+1.3000000000000000e+01 +3.8751458330894928e-03 +1.9756656056831961e-06 +1.6831354745668026e+01 +2.3844713948419604e+11 
+1.3100000000000001e+01 +3.8738822814518813e-03 +2.0491530056929351e-06 +1.6852966314786862e+01 +2.3724799455729309e+11 
+1.3200000000000001e+01 +3.8725901314238280e-03 +2.1509541354529742e-06 +1.6875099376825148e+01 +2.3596012127435907e+11 
+1.3300000000000001e+01 +3.8712696915699134e-03 +2.2401359383181474e-06 +1.6897711866472285e+01 +2.3462939430016449e+11 
+1.3400000000000000e+01 +3.8699212704547195e-03 +2.2757653578662753e-06 +1.6920761718417246e+01 +2.3330168829970560e+11 
+1.3500000000000000e+01 +3.8685451766428520e-03 +2.2169093373931628e-06 +1.6944206867348708e+01 +2.3202287793799686e+11 
+1.3600000000000001e+01 +3.8671417186989026e-03 +2.0226348205881268e-06 +1.6968005247955457e+01 +2.3083883788009164e+11 
+1.3700000000000001e+01 +3.8657112051874469e-03 +1.6520087505961257e-06 +1.6992114794926827e+01 +2.2979544279079932e+11 
+1.3800000000000001e+01 +3.8642539446730856e-03 +1.0640980710736842e-06 +1.7016493442951564e+01 +2.2893856733514993e+11 
+1.3900000000000000e+01 +3.8627702457204060e-03 +2.1796972539530932e-07 +1.7041099126718510e+01 +2.2831408617816055e+11 
+1.4000000000000000e+01 +3.8612604168940003e-03 -9.2730934295955514e-07 +1.7065889780916748e+01 +2.2796787398473138e+11 
+1.4100000000000001e+01 +3.8597241580025535e-03 -2.3733168813400794e-06 +1.7090856544495971e+01 +2.2791594430324872e+11 
+1.4200000000000001e+01 +3.8581587338311074e-03 -3.9642094000688412e-06 +1.7116123373450119e+01 +2.2805486621533960e+11 
+1.4300000000000001e+01 +3.8565608004088011e-03 -5.5047881005003498e-06 +1.7141847428034129e+01 +2.2825134768593546e+11 
+1.4400000000000000e+01 +3.8549270137647773e-03 -6.7998541834709878e-06 +1.7168185868502565e+01 +2.2837209668012601e+11 
+1.4500000000000000e+01 +3.8532540299281741e-03 -7.6542088504729892e-06 +1.7195295855110245e+01 +2.2828382116291531e+11 
+1.4600000000000001e+01 +3.8515385049281326e-03 -7.8726533025198210e-06 +1.7223334548111989e+01 +2.2785322909927115e+11 
+1.4700000000000001e+01 +3.8497770947937826e-03 -7.2599887407757943e-06 +1.7252459107762771e+01 +2.2694702845414310e+11 
+1.4800000000000001e+01 +3.8479664555542792e-03 -5.6210163664052133e-06 +1.7282826694316960e+01 +2.2543192719268832e+11 
+1.4900000000000000e+01 +3.8461032432387469e-03 -2.7605373805789489e-06 +1.7314594468029764e+01 +2.2317463327972928e+11 
+1.5000000000000000e+01 +3.8441841138763355e-03 +1.5166470154206342e-06 +1.7347919589155619e+01 +2.2004185468043094e+11 
+1.5100000000000001e+01 +3.8422069836642797e-03 +7.3023726993154392e-06 +1.7382885753677375e+01 +2.1596717710048544e+11 
+1.5200000000000001e+01 +3.8401748094722588e-03 +1.4275023863296613e-05 +1.7419282800488041e+01 +2.1115169720914978e+11 
+1.5300000000000001e+01 +3.8380918083380628e-03 +2.2009621778638273e-05 +1.7456827104208180e+01 +2.0586338941659207e+11 
+1.5400000000000000e+01 +3.8359621972994563e-03 +3.0081187716122640e-05 +1.7495235039459150e+01 +2.0037022813267435e+11 
+1.5500000000000000e+01 +3.8337901933942248e-03 +3.8064742947122212e-05 +1.7534222980861550e+01 +1.9494018776754663e+11 
+1.5600000000000001e+01 +3.8315800136601566e-03 +4.5535308742438899e-05 +1.7573507303036148e+01 +1.8984124273128369e+11 
+1.5700000000000001e+01 +3.8293358751350284e-03 +5.2067906373307450e-05 +1.7612804380603869e+01 +1.8534136743391876e+11 
+1.5800000000000001e+01 +3.8270619948566117e-03 +5.7237557110680614e-05 +1.7651830588185796e+01 +1.8170853628541766e+11 
+1.5900000000000000e+01 +3.8247625898626945e-03 +6.0619282225681664e-05 +1.7690302300402514e+01 +1.7921072369593298e+11 
+1.6000000000000000e+01 +3.8224418771910696e-03 +6.1788102989276489e-05 +1.7727935891874747e+01 +1.7811590407554730e+11 
+1.6100000000000001e+01 +3.8201023585329643e-03 +6.0462099267437659e-05 +1.7764544536133489e+01 +1.7860424085914059e+11 
+1.6199999999999999e+01 +3.8177396741935340e-03 +5.6931585304912204e-05 +1.7800328602347353e+01 +1.8050465358188007e+11 
+1.6300000000000001e+01 +3.8153477491313838e-03 +5.1629933941303000e-05 +1.7835585258595280e+01 +1.8355825080367325e+11 
